Energy(eV)	cross section (m-2)					
	(1) E + AR > E + AR	(2)  E + AR > AR* + E	(3) E + AR > AR* + E	(4) E + AR > AR^ + E + E	(5) E + AR* > AR^ + E + E	(6)  E + AR* > AR + E
0.000000E+00	1.000000E-19	0.000000E+00	0.000000E+00	0.000000E+00	0.000000E+00	5.768420E-21
1.000000E-07	9.999940E-20	0.000000E+00	0.000000E+00	0.000000E+00	0.000000E+00	5.767850E-21
2.000000E-07	9.999890E-20	0.000000E+00	0.000000E+00	0.000000E+00	0.000000E+00	5.767270E-21
3.000000E-07	9.999830E-20	0.000000E+00	0.000000E+00	0.000000E+00	0.000000E+00	5.766690E-21
4.000000E-07	9.999780E-20	0.000000E+00	0.000000E+00	0.000000E+00	0.000000E+00	5.766120E-21
5.000000E-07	9.999720E-20	0.000000E+00	0.000000E+00	0.000000E+00	0.000000E+00	5.766090E-21
6.000000E-07	9.999670E-20	0.000000E+00	0.000000E+00	0.000000E+00	0.000000E+00	5.765510E-21
7.000000E-07	9.999610E-20	0.000000E+00	0.000000E+00	0.000000E+00	0.000000E+00	5.764940E-21
8.000000E-07	9.999560E-20	0.000000E+00	0.000000E+00	0.000000E+00	0.000000E+00	5.764360E-21
9.000000E-07	9.999500E-20	0.000000E+00	0.000000E+00	0.000000E+00	0.000000E+00	5.763790E-21
1.000000E-06	9.999450E-20	0.000000E+00	0.000000E+00	0.000000E+00	0.000000E+00	5.763210E-21
1.100000E-06	9.999400E-20	0.000000E+00	0.000000E+00	0.000000E+00	0.000000E+00	5.762630E-21
1.200000E-06	9.999340E-20	0.000000E+00	0.000000E+00	0.000000E+00	0.000000E+00	5.762060E-21
1.300000E-06	9.999290E-20	0.000000E+00	0.000000E+00	0.000000E+00	0.000000E+00	5.761480E-21
1.400000E-06	9.999230E-20	0.000000E+00	0.000000E+00	0.000000E+00	0.000000E+00	5.760910E-21
1.500000E-06	9.999180E-20	0.000000E+00	0.000000E+00	0.000000E+00	0.000000E+00	5.760880E-21
1.600000E-06	9.999120E-20	0.000000E+00	0.000000E+00	0.000000E+00	0.000000E+00	5.760310E-21
1.700000E-06	9.999070E-20	0.000000E+00	0.000000E+00	0.000000E+00	0.000000E+00	5.759730E-21
1.800000E-06	9.999010E-20	0.000000E+00	0.000000E+00	0.000000E+00	0.000000E+00	5.759160E-21
1.900000E-06	9.998960E-20	0.000000E+00	0.000000E+00	0.000000E+00	0.000000E+00	5.758580E-21
2.000000E-06	9.998900E-20	0.000000E+00	0.000000E+00	0.000000E+00	0.000000E+00	5.758010E-21
2.100000E-06	9.998840E-20	0.000000E+00	0.000000E+00	0.000000E+00	0.000000E+00	5.757430E-21
2.200000E-06	9.998790E-20	0.000000E+00	0.000000E+00	0.000000E+00	0.000000E+00	5.756860E-21
2.300000E-06	9.998730E-20	0.000000E+00	0.000000E+00	0.000000E+00	0.000000E+00	5.756280E-21
2.400000E-06	9.998680E-20	0.000000E+00	0.000000E+00	0.000000E+00	0.000000E+00	5.756260E-21
2.500000E-06	9.998620E-20	0.000000E+00	0.000000E+00	0.000000E+00	0.000000E+00	5.755680E-21
2.600000E-06	9.998570E-20	0.000000E+00	0.000000E+00	0.000000E+00	0.000000E+00	5.755110E-21
2.700000E-06	9.998510E-20	0.000000E+00	0.000000E+00	0.000000E+00	0.000000E+00	5.754540E-21
2.800000E-06	9.998460E-20	0.000000E+00	0.000000E+00	0.000000E+00	0.000000E+00	5.753960E-21
2.900000E-06	9.998410E-20	0.000000E+00	0.000000E+00	0.000000E+00	0.000000E+00	5.753390E-21
3.000000E-06	9.998350E-20	0.000000E+00	0.000000E+00	0.000000E+00	0.000000E+00	5.752820E-21
3.100000E-06	9.998300E-20	0.000000E+00	0.000000E+00	0.000000E+00	0.000000E+00	5.752240E-21
3.200000E-06	9.998240E-20	0.000000E+00	0.000000E+00	0.000000E+00	0.000000E+00	5.751670E-21
3.300000E-06	9.998190E-20	0.000000E+00	0.000000E+00	0.000000E+00	0.000000E+00	5.751100E-21
3.400000E-06	9.998130E-20	0.000000E+00	0.000000E+00	0.000000E+00	0.000000E+00	5.751070E-21
3.500000E-06	9.998080E-20	0.000000E+00	0.000000E+00	0.000000E+00	0.000000E+00	5.750500E-21
3.600000E-06	9.998020E-20	0.000000E+00	0.000000E+00	0.000000E+00	0.000000E+00	5.749930E-21
3.700000E-06	9.997970E-20	0.000000E+00	0.000000E+00	0.000000E+00	0.000000E+00	5.749350E-21
3.800000E-06	9.997910E-20	0.000000E+00	0.000000E+00	0.000000E+00	0.000000E+00	5.748780E-21
3.900000E-06	9.997850E-20	0.000000E+00	0.000000E+00	0.000000E+00	0.000000E+00	5.748210E-21
4.000000E-06	9.997800E-20	0.000000E+00	0.000000E+00	0.000000E+00	0.000000E+00	5.747630E-21
4.100000E-06	9.997740E-20	0.000000E+00	0.000000E+00	0.000000E+00	0.000000E+00	5.747060E-21
4.200000E-06	9.997690E-20	0.000000E+00	0.000000E+00	0.000000E+00	0.000000E+00	5.746490E-21
4.300000E-06	9.997630E-20	0.000000E+00	0.000000E+00	0.000000E+00	0.000000E+00	5.746470E-21
4.400000E-06	9.997580E-20	0.000000E+00	0.000000E+00	0.000000E+00	0.000000E+00	5.745890E-21
4.500000E-06	9.997520E-20	0.000000E+00	0.000000E+00	0.000000E+00	0.000000E+00	5.745320E-21
4.600000E-06	9.997470E-20	0.000000E+00	0.000000E+00	0.000000E+00	0.000000E+00	5.744750E-21
4.700000E-06	9.997420E-20	0.000000E+00	0.000000E+00	0.000000E+00	0.000000E+00	5.744180E-21
4.800000E-06	9.997360E-20	0.000000E+00	0.000000E+00	0.000000E+00	0.000000E+00	5.743610E-21
4.900000E-06	9.997310E-20	0.000000E+00	0.000000E+00	0.000000E+00	0.000000E+00	5.743030E-21
5.000000E-06	9.997250E-20	0.000000E+00	0.000000E+00	0.000000E+00	0.000000E+00	5.742460E-21
5.100000E-06	9.997200E-20	0.000000E+00	0.000000E+00	0.000000E+00	0.000000E+00	5.741890E-21
5.200000E-06	9.997140E-20	0.000000E+00	0.000000E+00	0.000000E+00	0.000000E+00	5.741320E-21
5.300000E-06	9.997090E-20	0.000000E+00	0.000000E+00	0.000000E+00	0.000000E+00	5.741300E-21
5.400000E-06	9.997030E-20	0.000000E+00	0.000000E+00	0.000000E+00	0.000000E+00	5.740730E-21
5.500000E-06	9.996980E-20	0.000000E+00	0.000000E+00	0.000000E+00	0.000000E+00	5.740160E-21
5.600000E-06	9.996920E-20	0.000000E+00	0.000000E+00	0.000000E+00	0.000000E+00	5.739580E-21
5.700000E-06	9.996860E-20	0.000000E+00	0.000000E+00	0.000000E+00	0.000000E+00	5.739010E-21
5.800000E-06	9.996810E-20	0.000000E+00	0.000000E+00	0.000000E+00	0.000000E+00	5.738440E-21
5.900000E-06	9.996750E-20	0.000000E+00	0.000000E+00	0.000000E+00	0.000000E+00	5.737870E-21
6.000000E-06	9.996700E-20	0.000000E+00	0.000000E+00	0.000000E+00	0.000000E+00	5.737300E-21
6.100000E-06	9.996640E-20	0.000000E+00	0.000000E+00	0.000000E+00	0.000000E+00	5.736730E-21
6.200000E-06	9.996590E-20	0.000000E+00	0.000000E+00	0.000000E+00	0.000000E+00	5.736710E-21
6.300000E-06	9.996530E-20	0.000000E+00	0.000000E+00	0.000000E+00	0.000000E+00	5.736140E-21
6.400000E-06	9.996480E-20	0.000000E+00	0.000000E+00	0.000000E+00	0.000000E+00	5.735570E-21
6.500000E-06	9.996430E-20	0.000000E+00	0.000000E+00	0.000000E+00	0.000000E+00	5.735000E-21
6.600000E-06	9.996370E-20	0.000000E+00	0.000000E+00	0.000000E+00	0.000000E+00	5.734430E-21
6.700000E-06	9.996320E-20	0.000000E+00	0.000000E+00	0.000000E+00	0.000000E+00	5.733860E-21
6.800000E-06	9.996260E-20	0.000000E+00	0.000000E+00	0.000000E+00	0.000000E+00	5.733290E-21
6.900000E-06	9.996210E-20	0.000000E+00	0.000000E+00	0.000000E+00	0.000000E+00	5.732720E-21
7.000000E-06	9.996150E-20	0.000000E+00	0.000000E+00	0.000000E+00	0.000000E+00	5.732150E-21
7.100000E-06	9.996100E-20	0.000000E+00	0.000000E+00	0.000000E+00	0.000000E+00	5.731580E-21
7.200000E-06	9.996040E-20	0.000000E+00	0.000000E+00	0.000000E+00	0.000000E+00	5.731560E-21
7.300000E-06	9.995990E-20	0.000000E+00	0.000000E+00	0.000000E+00	0.000000E+00	5.730990E-21
7.400000E-06	9.995930E-20	0.000000E+00	0.000000E+00	0.000000E+00	0.000000E+00	5.730420E-21
7.500000E-06	9.995870E-20	0.000000E+00	0.000000E+00	0.000000E+00	0.000000E+00	5.729850E-21
7.600000E-06	9.995820E-20	0.000000E+00	0.000000E+00	0.000000E+00	0.000000E+00	5.729290E-21
7.700000E-06	9.995760E-20	0.000000E+00	0.000000E+00	0.000000E+00	0.000000E+00	5.728720E-21
7.800000E-06	9.995710E-20	0.000000E+00	0.000000E+00	0.000000E+00	0.000000E+00	5.728150E-21
7.900000E-06	9.995650E-20	0.000000E+00	0.000000E+00	0.000000E+00	0.000000E+00	5.727580E-21
8.000000E-06	9.995600E-20	0.000000E+00	0.000000E+00	0.000000E+00	0.000000E+00	5.727010E-21
8.100000E-06	9.995540E-20	0.000000E+00	0.000000E+00	0.000000E+00	0.000000E+00	5.726440E-21
8.200000E-06	9.995490E-20	0.000000E+00	0.000000E+00	0.000000E+00	0.000000E+00	5.726420E-21
8.300000E-06	9.995440E-20	0.000000E+00	0.000000E+00	0.000000E+00	0.000000E+00	5.725850E-21
8.400000E-06	9.995380E-20	0.000000E+00	0.000000E+00	0.000000E+00	0.000000E+00	5.725290E-21
8.500000E-06	9.995330E-20	0.000000E+00	0.000000E+00	0.000000E+00	0.000000E+00	5.724720E-21
8.600000E-06	9.995270E-20	0.000000E+00	0.000000E+00	0.000000E+00	0.000000E+00	5.724150E-21
8.700000E-06	9.995220E-20	0.000000E+00	0.000000E+00	0.000000E+00	0.000000E+00	5.723580E-21
8.800000E-06	9.995160E-20	0.000000E+00	0.000000E+00	0.000000E+00	0.000000E+00	5.723020E-21
8.900000E-06	9.995110E-20	0.000000E+00	0.000000E+00	0.000000E+00	0.000000E+00	5.722450E-21
9.000000E-06	9.995050E-20	0.000000E+00	0.000000E+00	0.000000E+00	0.000000E+00	5.721880E-21
9.100000E-06	9.995000E-20	0.000000E+00	0.000000E+00	0.000000E+00	0.000000E+00	5.721860E-21
9.200000E-06	9.994940E-20	0.000000E+00	0.000000E+00	0.000000E+00	0.000000E+00	5.721290E-21
9.300000E-06	9.994890E-20	0.000000E+00	0.000000E+00	0.000000E+00	0.000000E+00	5.720730E-21
9.400000E-06	9.994830E-20	0.000000E+00	0.000000E+00	0.000000E+00	0.000000E+00	5.720160E-21
9.500000E-06	9.994770E-20	0.000000E+00	0.000000E+00	0.000000E+00	0.000000E+00	5.719590E-21
9.600000E-06	9.994720E-20	0.000000E+00	0.000000E+00	0.000000E+00	0.000000E+00	5.719030E-21
9.700000E-06	9.994660E-20	0.000000E+00	0.000000E+00	0.000000E+00	0.000000E+00	5.718460E-21
9.800000E-06	9.994610E-20	0.000000E+00	0.000000E+00	0.000000E+00	0.000000E+00	5.717890E-21
9.900000E-06	9.994550E-20	0.000000E+00	0.000000E+00	0.000000E+00	0.000000E+00	5.717330E-21
1.000000E-05	9.994500E-20	0.000000E+00	0.000000E+00	0.000000E+00	0.000000E+00	5.716760E-21
2.000000E-05	9.989000E-20	0.000000E+00	0.000000E+00	0.000000E+00	0.000000E+00	5.666650E-21
3.000000E-05	9.983500E-20	0.000000E+00	0.000000E+00	0.000000E+00	0.000000E+00	5.616980E-21
4.000000E-05	9.978000E-20	0.000000E+00	0.000000E+00	0.000000E+00	0.000000E+00	5.568800E-21
5.000000E-05	9.972500E-20	0.000000E+00	0.000000E+00	0.000000E+00	0.000000E+00	5.521010E-21
6.000000E-05	9.967000E-20	0.000000E+00	0.000000E+00	0.000000E+00	0.000000E+00	5.474640E-21
7.000000E-05	9.961500E-20	0.000000E+00	0.000000E+00	0.000000E+00	0.000000E+00	5.428620E-21
8.000000E-05	9.956000E-20	0.000000E+00	0.000000E+00	0.000000E+00	0.000000E+00	5.383970E-21
9.000000E-05	9.950500E-20	0.000000E+00	0.000000E+00	0.000000E+00	0.000000E+00	5.339620E-21
1.000000E-04	9.945000E-20	0.000000E+00	0.000000E+00	0.000000E+00	0.000000E+00	5.296590E-21
1.100000E-04	9.939500E-20	0.000000E+00	0.000000E+00	0.000000E+00	0.000000E+00	5.253830E-21
1.200000E-04	9.934000E-20	0.000000E+00	0.000000E+00	0.000000E+00	0.000000E+00	5.212330E-21
1.300000E-04	9.928500E-20	0.000000E+00	0.000000E+00	0.000000E+00	0.000000E+00	5.171080E-21
1.400000E-04	9.923000E-20	0.000000E+00	0.000000E+00	0.000000E+00	0.000000E+00	5.131030E-21
1.500000E-04	9.917500E-20	0.000000E+00	0.000000E+00	0.000000E+00	0.000000E+00	5.091200E-21
1.600000E-04	9.912000E-20	0.000000E+00	0.000000E+00	0.000000E+00	0.000000E+00	5.052530E-21
1.700000E-04	9.906500E-20	0.000000E+00	0.000000E+00	0.000000E+00	0.000000E+00	5.014060E-21
1.800000E-04	9.901000E-20	0.000000E+00	0.000000E+00	0.000000E+00	0.000000E+00	4.976700E-21
1.900000E-04	9.895500E-20	0.000000E+00	0.000000E+00	0.000000E+00	0.000000E+00	4.939510E-21
2.000000E-04	9.890000E-20	0.000000E+00	0.000000E+00	0.000000E+00	0.000000E+00	4.903390E-21
2.100000E-04	9.884500E-20	0.000000E+00	0.000000E+00	0.000000E+00	0.000000E+00	4.867420E-21
2.200000E-04	9.879000E-20	0.000000E+00	0.000000E+00	0.000000E+00	0.000000E+00	4.832490E-21
2.300000E-04	9.873500E-20	0.000000E+00	0.000000E+00	0.000000E+00	0.000000E+00	4.797680E-21
2.400000E-04	9.868000E-20	0.000000E+00	0.000000E+00	0.000000E+00	0.000000E+00	4.763870E-21
2.500000E-04	9.862500E-20	0.000000E+00	0.000000E+00	0.000000E+00	0.000000E+00	4.730170E-21
2.600000E-04	9.857000E-20	0.000000E+00	0.000000E+00	0.000000E+00	0.000000E+00	4.697430E-21
2.700000E-04	9.851500E-20	0.000000E+00	0.000000E+00	0.000000E+00	0.000000E+00	4.664780E-21
2.800000E-04	9.846000E-20	0.000000E+00	0.000000E+00	0.000000E+00	0.000000E+00	4.633070E-21
2.900000E-04	9.840500E-20	0.000000E+00	0.000000E+00	0.000000E+00	0.000000E+00	4.601420E-21
3.000000E-04	9.835000E-20	0.000000E+00	0.000000E+00	0.000000E+00	0.000000E+00	4.570690E-21
3.100000E-04	9.829500E-20	0.000000E+00	0.000000E+00	0.000000E+00	0.000000E+00	4.540000E-21
3.200000E-04	9.824000E-20	0.000000E+00	0.000000E+00	0.000000E+00	0.000000E+00	4.510200E-21
3.300000E-04	9.818500E-20	0.000000E+00	0.000000E+00	0.000000E+00	0.000000E+00	4.480430E-21
3.400000E-04	9.813000E-20	0.000000E+00	0.000000E+00	0.000000E+00	0.000000E+00	4.451510E-21
3.500000E-04	9.807500E-20	0.000000E+00	0.000000E+00	0.000000E+00	0.000000E+00	4.422620E-21
3.600000E-04	9.802000E-20	0.000000E+00	0.000000E+00	0.000000E+00	0.000000E+00	4.394150E-21
3.700000E-04	9.796500E-20	0.000000E+00	0.000000E+00	0.000000E+00	0.000000E+00	4.366490E-21
3.800000E-04	9.791000E-20	0.000000E+00	0.000000E+00	0.000000E+00	0.000000E+00	4.338840E-21
3.900000E-04	9.785500E-20	0.000000E+00	0.000000E+00	0.000000E+00	0.000000E+00	4.311990E-21
4.000000E-04	9.780000E-20	0.000000E+00	0.000000E+00	0.000000E+00	0.000000E+00	4.285120E-21
4.100000E-04	9.774500E-20	0.000000E+00	0.000000E+00	0.000000E+00	0.000000E+00	4.259030E-21
4.200000E-04	9.769000E-20	0.000000E+00	0.000000E+00	0.000000E+00	0.000000E+00	4.232910E-21
4.300000E-04	9.763500E-20	0.000000E+00	0.000000E+00	0.000000E+00	0.000000E+00	4.207550E-21
4.400000E-04	9.758000E-20	0.000000E+00	0.000000E+00	0.000000E+00	0.000000E+00	4.182150E-21
4.500000E-04	9.752500E-20	0.000000E+00	0.000000E+00	0.000000E+00	0.000000E+00	4.157490E-21
4.600000E-04	9.747000E-20	0.000000E+00	0.000000E+00	0.000000E+00	0.000000E+00	4.132780E-21
4.700000E-04	9.741500E-20	0.000000E+00	0.000000E+00	0.000000E+00	0.000000E+00	4.108790E-21
4.800000E-04	9.736000E-20	0.000000E+00	0.000000E+00	0.000000E+00	0.000000E+00	4.084750E-21
4.900000E-04	9.730500E-20	0.000000E+00	0.000000E+00	0.000000E+00	0.000000E+00	4.061400E-21
5.000000E-04	9.725000E-20	0.000000E+00	0.000000E+00	0.000000E+00	0.000000E+00	4.038000E-21
5.100000E-04	9.719500E-20	0.000000E+00	0.000000E+00	0.000000E+00	0.000000E+00	4.015270E-21
5.200000E-04	9.714000E-20	0.000000E+00	0.000000E+00	0.000000E+00	0.000000E+00	3.992470E-21
5.300000E-04	9.708500E-20	0.000000E+00	0.000000E+00	0.000000E+00	0.000000E+00	3.970340E-21
5.400000E-04	9.703000E-20	0.000000E+00	0.000000E+00	0.000000E+00	0.000000E+00	3.948130E-21
5.500000E-04	9.697500E-20	0.000000E+00	0.000000E+00	0.000000E+00	0.000000E+00	3.926570E-21
5.600000E-04	9.692000E-20	0.000000E+00	0.000000E+00	0.000000E+00	0.000000E+00	3.904930E-21
5.700000E-04	9.686500E-20	0.000000E+00	0.000000E+00	0.000000E+00	0.000000E+00	3.883920E-21
5.800000E-04	9.681000E-20	0.000000E+00	0.000000E+00	0.000000E+00	0.000000E+00	3.862820E-21
5.900000E-04	9.675500E-20	0.000000E+00	0.000000E+00	0.000000E+00	0.000000E+00	3.842340E-21
6.000000E-04	9.670000E-20	0.000000E+00	0.000000E+00	0.000000E+00	0.000000E+00	3.821760E-21
6.100000E-04	9.664510E-20	0.000000E+00	0.000000E+00	0.000000E+00	0.000000E+00	3.801790E-21
6.200000E-04	9.659000E-20	0.000000E+00	0.000000E+00	0.000000E+00	0.000000E+00	3.781720E-21
6.300000E-04	9.653510E-20	0.000000E+00	0.000000E+00	0.000000E+00	0.000000E+00	3.762230E-21
6.400000E-04	9.648000E-20	0.000000E+00	0.000000E+00	0.000000E+00	0.000000E+00	3.742650E-21
6.500000E-04	9.642500E-20	0.000000E+00	0.000000E+00	0.000000E+00	0.000000E+00	3.723640E-21
6.600000E-04	9.637010E-20	0.000000E+00	0.000000E+00	0.000000E+00	0.000000E+00	3.704530E-21
6.700000E-04	9.631500E-20	0.000000E+00	0.000000E+00	0.000000E+00	0.000000E+00	3.685970E-21
6.800000E-04	9.626010E-20	0.000000E+00	0.000000E+00	0.000000E+00	0.000000E+00	3.667310E-21
6.900000E-04	9.620500E-20	0.000000E+00	0.000000E+00	0.000000E+00	0.000000E+00	3.649190E-21
7.000000E-04	9.615010E-20	0.000000E+00	0.000000E+00	0.000000E+00	0.000000E+00	3.630970E-21
7.100000E-04	9.609510E-20	0.000000E+00	0.000000E+00	0.000000E+00	0.000000E+00	3.612960E-21
7.200000E-04	9.604010E-20	0.000000E+00	0.000000E+00	0.000000E+00	0.000000E+00	3.595470E-21
7.300000E-04	9.598510E-20	0.000000E+00	0.000000E+00	0.000000E+00	0.000000E+00	3.577870E-21
7.400000E-04	9.593010E-20	0.000000E+00	0.000000E+00	0.000000E+00	0.000000E+00	3.560790E-21
7.500000E-04	9.587510E-20	0.000000E+00	0.000000E+00	0.000000E+00	0.000000E+00	3.543590E-21
7.600000E-04	9.582010E-20	0.000000E+00	0.000000E+00	0.000000E+00	0.000000E+00	3.526900E-21
7.700000E-04	9.576510E-20	0.000000E+00	0.000000E+00	0.000000E+00	0.000000E+00	3.510080E-21
7.800000E-04	9.571010E-20	0.000000E+00	0.000000E+00	0.000000E+00	0.000000E+00	3.493770E-21
7.900000E-04	9.565510E-20	0.000000E+00	0.000000E+00	0.000000E+00	0.000000E+00	3.477330E-21
8.000000E-04	9.560010E-20	0.000000E+00	0.000000E+00	0.000000E+00	0.000000E+00	3.461370E-21
8.100000E-04	9.554510E-20	0.000000E+00	0.000000E+00	0.000000E+00	0.000000E+00	3.445290E-21
8.200000E-04	9.549010E-20	0.000000E+00	0.000000E+00	0.000000E+00	0.000000E+00	3.429690E-21
8.300000E-04	9.543510E-20	0.000000E+00	0.000000E+00	0.000000E+00	0.000000E+00	3.413960E-21
8.400000E-04	9.538010E-20	0.000000E+00	0.000000E+00	0.000000E+00	0.000000E+00	3.398700E-21
8.500000E-04	9.532510E-20	0.000000E+00	0.000000E+00	0.000000E+00	0.000000E+00	3.383300E-21
8.600000E-04	9.527010E-20	0.000000E+00	0.000000E+00	0.000000E+00	0.000000E+00	3.368370E-21
8.700000E-04	9.521510E-20	0.000000E+00	0.000000E+00	0.000000E+00	0.000000E+00	3.353300E-21
8.800000E-04	9.516010E-20	0.000000E+00	0.000000E+00	0.000000E+00	0.000000E+00	3.338690E-21
8.900000E-04	9.510510E-20	0.000000E+00	0.000000E+00	0.000000E+00	0.000000E+00	3.323940E-21
9.000000E-04	9.505010E-20	0.000000E+00	0.000000E+00	0.000000E+00	0.000000E+00	3.309630E-21
9.100000E-04	9.499510E-20	0.000000E+00	0.000000E+00	0.000000E+00	0.000000E+00	3.295190E-21
9.200000E-04	9.494010E-20	0.000000E+00	0.000000E+00	0.000000E+00	0.000000E+00	3.281180E-21
9.300000E-04	9.488510E-20	0.000000E+00	0.000000E+00	0.000000E+00	0.000000E+00	3.267030E-21
9.400000E-04	9.483010E-20	0.000000E+00	0.000000E+00	0.000000E+00	0.000000E+00	3.253320E-21
9.500000E-04	9.477510E-20	0.000000E+00	0.000000E+00	0.000000E+00	0.000000E+00	3.239460E-21
9.600000E-04	9.472010E-20	0.000000E+00	0.000000E+00	0.000000E+00	0.000000E+00	3.226020E-21
9.700000E-04	9.466510E-20	0.000000E+00	0.000000E+00	0.000000E+00	0.000000E+00	3.212440E-21
9.800000E-04	9.461010E-20	0.000000E+00	0.000000E+00	0.000000E+00	0.000000E+00	3.199270E-21
9.900000E-04	9.455510E-20	0.000000E+00	0.000000E+00	0.000000E+00	0.000000E+00	3.185970E-21
1.000000E-03	9.450010E-20	0.000000E+00	0.000000E+00	0.000000E+00	0.000000E+00	3.173060E-21
1.010000E-03	9.444510E-20	0.000000E+00	0.000000E+00	0.000000E+00	0.000000E+00	3.160020E-21
1.020000E-03	9.439010E-20	0.000000E+00	0.000000E+00	0.000000E+00	0.000000E+00	3.147370E-21
1.030000E-03	9.433510E-20	0.000000E+00	0.000000E+00	0.000000E+00	0.000000E+00	3.134580E-21
1.040000E-03	9.428010E-20	0.000000E+00	0.000000E+00	0.000000E+00	0.000000E+00	3.122190E-21
1.050000E-03	9.422510E-20	0.000000E+00	0.000000E+00	0.000000E+00	0.000000E+00	3.109640E-21
1.060000E-03	9.417010E-20	0.000000E+00	0.000000E+00	0.000000E+00	0.000000E+00	3.097220E-21
1.070000E-03	9.411510E-20	0.000000E+00	0.000000E+00	0.000000E+00	0.000000E+00	3.085190E-21
1.080000E-03	9.406010E-20	0.000000E+00	0.000000E+00	0.000000E+00	0.000000E+00	3.073000E-21
1.090000E-03	9.400510E-20	0.000000E+00	0.000000E+00	0.000000E+00	0.000000E+00	3.061200E-21
1.100000E-03	9.395010E-20	0.000000E+00	0.000000E+00	0.000000E+00	0.000000E+00	3.049240E-21
1.110000E-03	9.389510E-20	0.000000E+00	0.000000E+00	0.000000E+00	0.000000E+00	3.037660E-21
1.120000E-03	9.384010E-20	0.000000E+00	0.000000E+00	0.000000E+00	0.000000E+00	3.025930E-21
1.130000E-03	9.378510E-20	0.000000E+00	0.000000E+00	0.000000E+00	0.000000E+00	3.014570E-21
1.140000E-03	9.373010E-20	0.000000E+00	0.000000E+00	0.000000E+00	0.000000E+00	3.003060E-21
1.150000E-03	9.367510E-20	0.000000E+00	0.000000E+00	0.000000E+00	0.000000E+00	2.991910E-21
1.160000E-03	9.362010E-20	0.000000E+00	0.000000E+00	0.000000E+00	0.000000E+00	2.980600E-21
1.170000E-03	9.356510E-20	0.000000E+00	0.000000E+00	0.000000E+00	0.000000E+00	2.969660E-21
